# comment: None given                          Feff8L (EXAFS)       0.1      
# Source:
# Structure Summary:  Cu1
# Reduced formula:  Cu
# space group: (Fm-3m), space number:  (225)
# abc:  2.529625   2.529626   2.529625
# angles: 60.000012  60.000004  60.000003
# sites: 1
# mp-30
# POT  Non-SCF, core-hole, AFOLP (folp(0)= 1.150)
# Abs   Z=29 Rmt= 1.435 Rnm= 1.488 K  shell
# Pot 1 Z=29 Rmt= 1.342 Rnm= 1.379
# Gam_ch=1.729E+00 H-L exch
# Mu=-4.000E+00 kf=1.839E+00 Vint=-1.688E+01 Rs_int= 1.973
# PATH  Rmax= 6.000,  Keep_limit= 0.00, Heap_limit 0.00  Pwcrit= 2.50%
#  S02=1.000                                        Global_sig2= 0.00000
#  Curved wave amplitude ratio filter   4.000%
#     file         sig2 tot  cw amp ratio   deg  nlegs   reff  inp sig2
#           1       0.00000    100.00     12.00     2   2.5296
#           2       0.00000     23.06      6.00     2   3.5774
#           3       0.00000     12.69     48.00     3   3.7944
#           4       0.00000      9.83     48.00     3   4.3183
#           5       0.00000     56.07     24.00     2   4.3814
#           6       0.00000     11.91     48.00     3   4.7203
#           7       0.00000     26.77     96.00     3   4.7203
#           8       0.00000     19.28     12.00     2   5.0593
#           9       0.00000      9.77     12.00     3   5.0592
#          10       0.00000     45.36     24.00     3   5.0592
#          11       0.00000      9.59     12.00     4   5.0593
#          12       0.00000      4.53     12.00     4   5.0592
#          14       0.00000     32.91     12.00     4   5.0593
#          16       0.00000      4.84     48.00     3   5.2442
#          17       0.00000     28.47     24.00     2   5.6564
#          18       0.00000      9.97     48.00     3   5.8817
#          19       0.00000      8.16     48.00     3   5.8817
#          20       0.00000      8.90     48.00     3   5.8817
#          21       0.00000      5.97     96.00     3   5.9852
#          22       0.00000      5.99     96.00     3   5.9852
#          23       0.00000      6.05     96.00     4   5.9852
#          24       0.00000      6.51     96.00     4   5.9852
#    22/  23 paths used
#  -----------------------------------------------------------------------
#       k          chi          mag           phase @#
     0.0500   -1.711818E-01  4.732774E-01 -2.771508E+00
     0.1000   -1.826399E-01  4.767108E-01 -2.748415E+00
     0.1500   -2.155679E-01  4.867623E-01 -2.682806E+00
     0.2000   -2.478667E-01  4.964401E-01 -2.618816E+00
     0.2500   -2.974595E-01  5.117411E-01 -2.521305E+00
     0.3000   -3.446387E-01  5.258496E-01 -2.426888E+00
     0.3500   -4.021363E-01  5.438118E-01 -2.309300E+00
     0.4000   -4.538257E-01  5.593911E-01 -2.195246E+00
     0.4500   -5.073687E-01  5.767774E-01 -2.066443E+00
     0.5000   -5.506773E-01  5.906099E-01 -1.940630E+00
     0.5500   -5.879873E-01  6.045751E-01 -1.805588E+00
     0.6000   -6.110019E-01  6.141839E-01 -1.672633E+00
     0.6500   -6.225549E-01  6.229864E-01 -1.533574E+00
     0.7000   -6.175213E-01  6.270981E-01 -1.395807E+00
     0.7500   -5.985388E-01  6.300321E-01 -1.253278E+00
     0.8000   -5.632058E-01  6.283256E-01 -1.111489E+00
     0.8500   -5.142220E-01  6.254130E-01 -9.652862E-01
     0.9000   -4.517317E-01  6.181380E-01 -8.194846E-01
     0.9500   -3.782139E-01  6.097309E-01 -6.691205E-01
     1.0000   -2.962699E-01  5.973308E-01 -5.189742E-01
     1.0500   -2.078490E-01  5.838501E-01 -3.639809E-01
     1.1000   -1.176712E-01  5.667528E-01 -2.091449E-01
     1.1500   -2.694568E-02  5.486311E-01 -4.913415E-02
     1.2000    5.821239E-02  5.272405E-01  1.106351E-01
     1.2500    1.374346E-01  5.048659E-01  2.756995E-01
     1.3000    2.043547E-01  4.795481E-01  4.402218E-01
     1.3500    2.596888E-01  4.533382E-01  6.099625E-01
     1.4000    2.980997E-01  4.245269E-01  7.784726E-01
     1.4500    3.216915E-01  3.949952E-01  9.517265E-01
     1.5000    3.273701E-01  3.632956E-01  1.122328E+00
     1.5500    3.188064E-01  3.312061E-01  1.296300E+00
     1.6000    2.959217E-01  2.975950E-01  1.464703E+00
     1.6500    2.633616E-01  2.638692E-01  1.632831E+00
     1.7000    2.242285E-01  2.296734E-01  1.788976E+00
     1.7500    1.833571E-01  1.962213E-01  1.934909E+00
     1.8000    1.453812E-01  1.640856E-01  2.052929E+00
     1.8500    1.139599E-01  1.347291E-01  2.133446E+00
     1.9000    9.255371E-02  1.104368E-01  2.147858E+00
     1.9500    8.231756E-02  9.442171E-02  2.082712E+00
     2.0000    8.284562E-02  8.984430E-02  1.968114E+00
     2.0500    9.291532E-02  9.766103E-02  1.883822E+00
     2.1000    1.064196E-01  1.126957E-01  1.906103E+00
     2.1500    1.168375E-01  1.294322E-01  2.015605E+00
     2.2000    1.185961E-01  1.447033E-01  2.180913E+00
     2.2500    1.078716E-01  1.573918E-01  2.386481E+00
     2.3000    8.251517E-02  1.649252E-01  2.617626E+00
     2.3500    4.543391E-02  1.667020E-01  2.865555E+00
     2.4000    2.676374E-03  1.625844E-01  3.125130E+00
     2.4500   -3.429834E-02  1.619445E-01  3.354999E+00
     2.5000   -6.901793E-02  1.590382E-01  3.590488E+00
     2.5500   -9.787190E-02  1.539085E-01  3.830779E+00
     2.6000   -1.178921E-01  1.466546E-01  4.075376E+00
     2.6500   -1.312538E-01  1.413681E-01  4.331822E+00
     2.7000   -1.338552E-01  1.348336E-01  4.591850E+00
     2.7500   -1.258619E-01  1.271617E-01  4.855495E+00
     2.8000   -1.086318E-01  1.184828E-01  5.123050E+00
     2.8500   -8.618545E-02  1.132125E-01  5.417913E+00
     2.9000   -5.784655E-02  1.074540E-01  5.714722E+00
     2.9500   -2.697035E-02  1.012903E-01  6.013666E+00
     3.0000    3.022892E-03  9.480753E-02  6.315075E+00
     3.0500    3.185181E-02  9.221645E-02  6.635853E+00
     3.1000    5.567931E-02  8.945474E-02  6.955029E+00
     3.1500    7.233689E-02  8.655229E-02  7.272700E+00
     3.2000    8.062288E-02  8.353828E-02  7.589014E+00
     3.2500    8.410392E-02  8.419498E-02  7.900492E+00
     3.3000    7.947677E-02  8.470977E-02  8.207316E+00
     3.3500    6.740693E-02  8.511267E-02  8.510744E+00
     3.4000    4.911705E-02  8.539837E-02  8.811988E+00
     3.4500    2.784675E-02  8.712485E-02  9.099451E+00
     3.5000    3.692306E-03  8.844523E-02  9.383019E+00
     3.5500   -2.112818E-02  8.939120E-02  9.663392E+00
     3.6000   -4.441666E-02  8.996036E-02  9.941159E+00
     3.6500   -6.414767E-02  9.045482E-02  1.021310E+01
     3.7000   -7.830136E-02  8.994864E-02  1.048102E+01
     3.7500   -8.575239E-02  8.855135E-02  1.074348E+01
     3.8000   -8.638807E-02  8.638871E-02  1.099943E+01
     3.8500   -8.057050E-02  8.340887E-02  1.125720E+01
     3.9000   -6.909571E-02  7.923644E-02  1.150706E+01
     3.9500   -5.422027E-02  7.401117E-02  1.174424E+01
     4.0000   -3.861722E-02  6.799422E-02  1.196236E+01
     4.0500   -2.361605E-02  6.097281E-02  1.216865E+01
     4.1000   -1.208065E-02  5.360678E-02  1.233906E+01
     4.1500   -5.204228E-03  4.664913E-02  1.245458E+01
     4.2000   -2.925164E-03  4.135916E-02  1.249559E+01
     4.2500   -3.541732E-03  3.862270E-02  1.247454E+01
     4.3000   -5.481398E-03  4.027475E-02  1.242985E+01
     4.3500   -5.998440E-03  4.625526E-02  1.243632E+01
     4.4000   -2.421336E-03  5.527320E-02  1.252255E+01
     4.4500    6.683715E-03  6.528940E-02  1.266892E+01
     4.5000    2.198600E-02  7.597621E-02  1.285995E+01
     4.5500    4.261227E-02  8.662398E-02  1.308067E+01
     4.6000    6.623360E-02  9.670858E-02  1.332081E+01
     4.6500    8.873760E-02  1.051714E-01  1.357059E+01
     4.7000    1.070815E-01  1.124120E-01  1.382798E+01
     4.7500    1.180804E-01  1.182146E-01  1.408951E+01
     4.8000    1.196081E-01  1.224329E-01  1.435240E+01
     4.8500    1.110199E-01  1.247323E-01  1.461047E+01
     4.9000    9.369398E-02  1.255047E-01  1.486512E+01
     4.9500    6.986899E-02  1.248616E-01  1.511409E+01
     5.0000    4.250528E-02  1.230026E-01  1.535512E+01
     5.0500    1.488356E-02  1.201986E-01  1.558382E+01
     5.1000   -1.085809E-02  1.169846E-01  1.580091E+01
     5.1500   -3.335219E-02  1.138056E-01  1.600539E+01
     5.2000   -5.225493E-02  1.111329E-01  1.619748E+01
     5.2500   -6.817624E-02  1.094207E-01  1.638062E+01
     5.3000   -8.190968E-02  1.089576E-01  1.655869E+01
     5.3500   -9.406047E-02  1.098036E-01  1.673665E+01
     5.4000   -1.046617E-01  1.118106E-01  1.691923E+01
     5.4500   -1.129702E-01  1.145683E-01  1.711154E+01
     5.5000   -1.175749E-01  1.176457E-01  1.731344E+01
     5.5500   -1.169591E-01  1.205777E-01  1.752437E+01
     5.6000   -1.099585E-01  1.229424E-01  1.774249E+01
     5.6500   -9.586823E-02  1.240982E-01  1.796676E+01
     5.7000   -7.585242E-02  1.240969E-01  1.819194E+01
     5.7500   -5.181580E-02  1.228798E-01  1.841426E+01
     5.8000   -2.630760E-02  1.205544E-01  1.862956E+01
     5.8500   -1.864670E-03  1.171475E-01  1.883364E+01
     5.9000    1.941740E-02  1.135227E-01  1.902145E+01
     5.9500    3.687947E-02  1.104755E-01  1.918991E+01
     6.0000    5.126595E-02  1.089906E-01  1.933927E+01
     6.0500    6.446286E-02  1.099181E-01  1.947624E+01
     6.1000    7.889036E-02  1.142423E-01  1.961181E+01
     6.1500    9.644410E-02  1.221810E-01  1.975931E+01
     6.2000    1.175945E-01  1.334050E-01  1.992855E+01
     6.2500    1.407719E-01  1.472118E-01  2.012347E+01
     6.3000    1.622664E-01  1.627490E-01  2.034333E+01
     6.3500    1.767417E-01  1.791657E-01  2.058503E+01
     6.4000    1.783068E-01  1.956800E-01  2.084492E+01
     6.4500    1.619396E-01  2.115973E-01  2.111961E+01
     6.5000    1.249410E-01  2.263084E-01  2.140629E+01
     6.5500    6.704427E-02  2.385933E-01  2.170631E+01
     6.6000   -5.752262E-03  2.485407E-01  2.201429E+01
     6.6500   -8.476312E-02  2.557976E-01  2.232890E+01
     6.7000   -1.590545E-01  2.600874E-01  2.264916E+01
     6.7500   -2.173996E-01  2.612082E-01  2.297437E+01
     6.8000   -2.504669E-01  2.590321E-01  2.330407E+01
     6.8500   -2.527707E-01  2.535040E-01  2.363803E+01
     6.9000   -2.239458E-01  2.446411E-01  2.397623E+01
     6.9500   -1.690334E-01  2.325316E-01  2.431891E+01
     7.0000   -9.767004E-02  2.173347E-01  2.466665E+01
     7.0500   -2.191584E-02  1.987055E-01  2.502222E+01
     7.1000    4.439811E-02  1.775917E-01  2.538542E+01
     7.1500    9.056104E-02  1.544041E-01  2.575950E+01
     7.2000    1.103287E-01  1.296534E-01  2.615054E+01
     7.2500    1.031046E-01  1.040182E-01  2.657090E+01
     7.3000    7.392990E-02  7.855859E-02  2.704852E+01
     7.3500    3.228444E-02  5.546511E-02  2.765306E+01
     7.4000   -1.004208E-02  4.054096E-02  2.852464E+01
     7.4500   -4.154662E-02  4.329264E-02  2.956016E+01
     7.5000   -5.351493E-02  6.052938E-02  3.033133E+01
     7.5500   -4.142669E-02  8.219404E-02  3.088769E+01
     7.6000   -7.295803E-03  1.043128E-01  3.134593E+01
     7.6500    4.201401E-02  1.252437E-01  3.175802E+01
     7.7000    9.609136E-02  1.441792E-01  3.214539E+01
     7.7500    1.432950E-01  1.606285E-01  3.251787E+01
     7.8000    1.732789E-01  1.742630E-01  3.288040E+01
     7.8500    1.791667E-01  1.848624E-01  3.323560E+01
     7.9000    1.589082E-01  1.922951E-01  3.358488E+01
     7.9500    1.155533E-01  1.965093E-01  3.392890E+01
     8.0000    5.642215E-02  1.975298E-01  3.426785E+01
     8.0500   -8.686685E-03  1.949988E-01  3.460208E+01
     8.1000   -6.901551E-02  1.896047E-01  3.493007E+01
     8.1500   -1.160680E-01  1.816213E-01  3.525080E+01
     8.2000   -1.447048E-01  1.713960E-01  3.556272E+01
     8.2500   -1.538039E-01  1.593536E-01  3.586363E+01
     8.3000   -1.459691E-01  1.460047E-01  3.615040E+01
     8.3500   -1.264332E-01  1.319605E-01  3.641877E+01
     8.4000   -1.014838E-01  1.179568E-01  3.666316E+01
     8.4500   -7.683318E-02  1.048811E-01  3.687702E+01
     8.5000   -5.633474E-02  9.377488E-02  3.705468E+01
     8.5500   -4.138777E-02  8.582642E-02  3.719592E+01
     8.6000   -3.078869E-02  8.183503E-02  3.731339E+01
     8.6500   -2.174699E-02  8.191494E-02  3.743041E+01
     8.7000   -1.100405E-02  8.533018E-02  3.756979E+01
     8.7500    3.960536E-03  9.084377E-02  3.774272E+01
     8.8000    2.402138E-02  9.720475E-02  3.794882E+01
     8.8500    4.803378E-02  1.034103E-01  3.818218E+01
     8.9000    7.307036E-02  1.087482E-01  3.843591E+01
     8.9500    9.517278E-02  1.127511E-01  3.870399E+01
     9.0000    1.103872E-01  1.151416E-01  3.898154E+01
     9.0500    1.158913E-01  1.158922E-01  3.926608E+01
     9.1000    1.102762E-01  1.148564E-01  3.955326E+01
     9.1500    9.436095E-02  1.121005E-01  3.984018E+01
     9.2000    7.079492E-02  1.077747E-01  4.012403E+01
     9.2500    4.337970E-02  1.021036E-01  4.040190E+01
     9.3000    1.615322E-02  9.537882E-02  4.067053E+01
     9.3500   -7.507032E-03  8.795528E-02  4.092616E+01
     9.4000   -2.552894E-02  8.024917E-02  4.116445E+01
     9.4500   -3.739425E-02  7.273606E-02  4.138067E+01
     9.5000   -4.396849E-02  6.594159E-02  4.157058E+01
     9.5500   -4.697339E-02  6.029069E-02  4.173396E+01
     9.6000   -4.830472E-02  5.634427E-02  4.187073E+01
     9.6500   -4.972852E-02  5.445979E-02  4.199159E+01
     9.7000   -5.225003E-02  5.466147E-02  4.211336E+01
     9.7500   -5.589331E-02  5.661448E-02  4.225172E+01
     9.8000   -5.977201E-02  5.977236E-02  4.241494E+01
     9.8500   -6.240032E-02  6.357111E-02  4.260372E+01
     9.9000   -6.213571E-02  6.754767E-02  4.281452E+01
     9.9500   -5.762405E-02  7.137216E-02  4.304261E+01
    10.0000   -4.813635E-02  7.483496E-02  4.328358E+01
    10.0500   -3.399804E-02  7.810830E-02  4.353196E+01
    10.1000   -1.560409E-02  8.095875E-02  4.378834E+01
    10.1500    5.735521E-03  8.333387E-02  4.405118E+01
    10.2000    2.818158E-02  8.519902E-02  4.431942E+01
    10.2500    4.957652E-02  8.652662E-02  4.459241E+01
    10.3000    6.769126E-02  8.728856E-02  4.486979E+01
    10.3500    8.048901E-02  8.745136E-02  4.515136E+01
    10.4000    8.638969E-02  8.697412E-02  4.543710E+01
    10.4500    8.451430E-02  8.580884E-02  4.572702E+01
    10.5000    7.487855E-02  8.390269E-02  4.602115E+01
    10.5500    5.849507E-02  8.120176E-02  4.631956E+01
    10.6000    3.734118E-02  7.765565E-02  4.662226E+01
    10.6500    1.416067E-02  7.322241E-02  4.692927E+01
    10.7000   -7.904219E-03  6.787328E-02  4.724061E+01
    10.7500   -2.581441E-02  6.159696E-02  4.755633E+01
    10.8000   -3.719011E-02  5.440296E-02  4.787658E+01
    10.8500   -4.080973E-02  4.632413E-02  4.820178E+01
    10.9000   -3.693011E-02  3.741824E-02  4.853298E+01
    10.9500   -2.732783E-02  2.776908E-02  4.887319E+01
    11.0000   -1.501304E-02  1.749004E-02  4.923339E+01
    11.0500   -3.542006E-03  6.735961E-03  4.971179E+01
    11.1000    3.465069E-03  4.999843E-03  5.264138E+01
    11.1500    3.353093E-03  1.640798E-02  5.320127E+01
    11.2000   -4.861035E-03  2.805884E-02  5.358120E+01
    11.2500   -2.012445E-02  3.964480E-02  5.393949E+01
    11.3000   -3.943479E-02  5.096859E-02  5.429175E+01
    11.3500   -5.838751E-02  6.184385E-02  5.464196E+01
    11.4000   -7.208557E-02  7.209235E-02  5.499159E+01
    11.4500   -7.622217E-02  8.154651E-02  5.534123E+01
    11.5000   -6.809755E-02  9.005269E-02  5.569119E+01
    11.5500   -4.733534E-02  9.747417E-02  5.604160E+01
    11.6000   -1.612431E-02  1.036939E-01  5.639254E+01
    11.6500    2.108656E-02  1.086168E-01  5.674405E+01
    11.7000    5.839017E-02  1.121710E-01  5.709616E+01
    11.7500    8.955850E-02  1.143097E-01  5.744890E+01
    11.8000    1.092752E-01  1.150110E-01  5.780232E+01
    11.8500    1.142003E-01  1.142785E-01  5.815645E+01
    11.9000    1.036375E-01  1.121407E-01  5.851139E+01
    11.9500    7.966202E-02  1.086499E-01  5.886725E+01
    12.0000    4.668367E-02  1.038809E-01  5.922417E+01
    12.0500    1.051087E-02  9.834182E-02  5.958317E+01
    12.1000   -2.300369E-02  9.171189E-02  5.994379E+01
    12.1500   -4.861563E-02  8.410732E-02  6.030656E+01
    12.2000   -6.292023E-02  7.565930E-02  6.067229E+01
    12.2500   -6.492737E-02  6.651252E-02  6.104230E+01
    12.3000   -5.611889E-02  5.682477E-02  6.141884E+01
    12.3500   -3.999186E-02  4.676892E-02  6.180612E+01
    12.4000   -2.120032E-02  3.654209E-02  6.221293E+01
    12.4500   -4.490825E-03  2.640086E-02  6.266092E+01
    12.5000    6.333741E-03  1.682078E-02  6.321791E+01
    12.5500    9.199550E-03  9.502132E-03  6.414961E+01
    12.6000    4.133945E-03  1.018032E-02  6.555529E+01
    12.6500   -6.844345E-03  1.721923E-02  6.638222E+01
    12.7000   -2.027819E-02  2.516907E-02  6.691027E+01
    12.7500   -3.213266E-02  3.275484E-02  6.734902E+01
    12.8000   -3.876204E-02  3.961824E-02  6.775252E+01
    12.8500   -3.776273E-02  4.558729E-02  6.813886E+01
    12.9000   -2.852103E-02  5.055479E-02  6.851562E+01
    12.9500   -1.233804E-02  5.444934E-02  6.888646E+01
    13.0000    7.887664E-03  5.722654E-02  6.925331E+01
    13.0500    2.847293E-02  5.903779E-02  6.961830E+01
    13.1000    4.548811E-02  5.972355E-02  6.998089E+01
    13.1500    5.581321E-02  5.929664E-02  7.034136E+01
    13.2000    5.778533E-02  5.779094E-02  7.069977E+01
    13.2500    5.151945E-02  5.526077E-02  7.105592E+01
    13.3000    3.880854E-02  5.178017E-02  7.140935E+01
    13.3500    2.263748E-02  4.744200E-02  7.175921E+01
    13.4000    6.437694E-03  4.235701E-02  7.210405E+01
    13.4500   -6.729993E-03  3.665352E-02  7.244129E+01
    13.5000   -1.486302E-02  3.047904E-02  7.276602E+01
    13.5500   -1.741079E-02  2.400811E-02  7.306796E+01
    13.6000   -1.528745E-02  1.747367E-02  7.332183E+01
    13.6500   -1.051509E-02  1.130804E-02  7.345071E+01
    13.7000   -5.602414E-03  6.923881E-03  7.319932E+01
    13.7500   -2.829103E-03  7.833063E-03  7.262616E+01
    13.8000   -3.625354E-03  1.251340E-02  7.255056E+01
    13.8500   -8.206116E-03  1.777838E-02  7.273640E+01
    13.9000   -1.554769E-02  2.276071E-02  7.300862E+01
    13.9500   -2.370141E-02  2.717814E-02  7.331606E+01
    14.0000   -3.034941E-02  3.088840E-02  7.364034E+01
    14.0500   -3.356472E-02  3.393366E-02  7.397502E+01
    14.1000   -3.194830E-02  3.614462E-02  7.431408E+01
    14.1500   -2.537203E-02  3.748856E-02  7.465483E+01
    14.2000   -1.488555E-02  3.795796E-02  7.499525E+01
    14.2500   -2.427956E-03  3.756975E-02  7.533355E+01
    14.3000    9.685721E-03  3.636503E-02  7.566782E+01
    14.3500    1.935671E-02  3.440922E-02  7.599568E+01
    14.4000    2.521017E-02  3.179317E-02  7.631385E+01
    14.4500    2.688446E-02  2.863641E-02  7.661741E+01
    14.5000    2.503307E-02  2.509526E-02  7.689860E+01
    14.5500    2.105309E-02  2.138178E-02  7.714459E+01
    14.6000    1.662896E-02  1.780499E-02  7.733451E+01
    14.6500    1.322804E-02  1.484373E-02  7.743993E+01
    14.7000    1.169199E-02  1.317819E-02  7.744853E+01
    14.7500    1.203381E-02  1.336638E-02  7.741935E+01
    14.8000    1.348767E-02  1.523992E-02  7.745327E+01
    14.8500    1.478456E-02  1.809012E-02  7.758315E+01
    14.9000    1.456446E-02  2.129040E-02  7.778647E+01
    14.9500    1.180163E-02  2.445404E-02  7.803619E+01
    15.0000    6.122565E-03  2.735690E-02  7.831410E+01
    15.0500   -2.092035E-03  2.994346E-02  7.860974E+01
    15.1000   -1.176867E-02  3.207733E-02  7.891547E+01
    15.1500   -2.138693E-02  3.371908E-02  7.922688E+01
    15.2000   -2.935301E-02  3.485844E-02  7.954091E+01
    15.2500   -3.435879E-02  3.550912E-02  7.985538E+01
    15.3000   -3.564484E-02  3.570489E-02  8.016862E+01
    15.3500   -3.311001E-02  3.549590E-02  8.047935E+01
    15.4000   -2.725928E-02  3.494457E-02  8.078663E+01
    15.4500   -1.902759E-02  3.412092E-02  8.108985E+01
    15.5000   -9.546473E-03  3.309698E-02  8.138881E+01
    15.5500    7.474798E-05  3.194058E-02  8.168375E+01
    15.6000    8.899787E-03  3.070883E-02  8.197544E+01
    15.6500    1.622818E-02  2.944202E-02  8.226520E+01
    15.7000    2.158494E-02  2.815922E-02  8.255483E+01
    15.7500    2.467620E-02  2.685652E-02  8.284648E+01
    15.8000    2.535519E-02  2.550870E-02  8.314244E+01
